C:\Documents and Settings\Potenciostato SP150\Escritorio\Alfonso\DIV_1_01.mpr
Ewe/V vs. SCE	<I>/mA
0.15343	51.2174e-6
0.154608	0.71288e-3
0.1566	1.82745e-3
0.158594	2.9258e-3
0.160539	4.01102e-3
0.162565	5.17125e-3
0.164566	6.30293e-3
0.166531	7.4515e-3
0.168607	8.63069e-3
0.173643	0.0116272
0.178728	0.0147866
0.180718	0.0160922
0.182744	0.017328
0.184726	0.0186204
0.186731	0.0199423
0.188725	0.0212485
0.190719	0.022584
0.192703	0.0239279
0.194729	0.0253132
0.196723	0.0266807
0.198677	0.0280743
0.200694	0.0295293
0.202719	0.0309558
0.204723	0.032449
0.206695	0.0339385
0.208677	0.0354176
0.210729	0.0368942
0.212716	0.0384339
0.214709	0.0400172
0.216673	0.0415569
0.218646	0.043174
0.220686	0.0447855
0.222653	0.0464099
0.224688	0.0480921
0.226666	0.0497753
0.228668	0.0514915
0.230704	0.0532145
0.232705	0.0549923
0.234734	0.0567501
0.236758	0.0585338
0.238735	0.0603715
0.240704	0.062234
0.242681	0.0640965
0.244693	0.06598
0.246709	0.0678964
0.248674	0.0698757
0.250733	0.0718449
0.252708	0.0738929
0.254733	0.0759643
0.256743	0.078062
0.258739	0.0801767
0.260683	0.0823261
0.262691	0.0845011
0.264711	0.0867212
0.266735	0.0889755
0.268703	0.0912345
0.270694	0.0935892
0.272714	0.0959419
0.274715	0.098358
0.279738	0.10466
0.284761	0.111099
0.286718	0.113762
0.288725	0.116538
0.290725	0.119309
0.29269	0.122141
0.294711	0.124948
0.296708	0.127977
0.298705	0.131049
0.300721	0.13412
0.302698	0.137292
0.304688	0.140502
0.30676	0.143813
0.308699	0.147155
0.310744	0.150598
0.312704	0.154126
0.314672	0.157768
0.316677	0.161474
0.318659	0.165207
0.320697	0.169075
0.322701	0.173088
0.32465	0.177081
0.326658	0.181187
0.328688	0.1855
0.330682	0.189906
0.332699	0.194493
0.334688	0.199141
0.336741	0.203858
0.338711	0.20874
0.340707	0.213748
0.342751	0.218946
0.34469	0.22418
0.346695	0.229638
0.348659	0.235369
0.350669	0.241125
0.352687	0.247158
0.354665	0.253396
0.356675	0.25984
0.358722	0.266532
0.360718	0.27337
0.362707	0.28043
0.364724	0.287762
0.366717	0.295346
0.368718	0.303185
0.370648	0.311246
0.372689	0.319761
0.374694	0.328545
0.376667	0.337612
0.378696	0.347076
0.380676	0.356889
0.382702	0.367183
0.384727	0.377845
0.386754	0.389018
0.388743	0.400529
0.390696	0.412536
0.392741	0.425208
0.394709	0.438175
0.396667	0.451646
0.398678	0.466063
0.400727	0.481217
0.402699	0.496898
0.404732	0.513297
0.406692	0.530512
0.408681	0.54854
0.410712	0.567656
0.412707	0.587671
0.414726	0.608523
0.416741	0.630511
0.418753	0.653904
0.420702	0.678049
0.422694	0.703604
0.424701	0.730896
0.426712	0.759334
0.428647	0.78947
0.430688	0.821336
0.43272	0.855037
0.434732	0.891218
0.436704	0.928899
0.438733	0.968979
0.443814	1.085
0.448907	1.21139
0.450944	1.26858
0.45286	1.32895
0.454903	1.39316
0.45689	1.46228
0.458885	1.53535
0.460936	1.61426
0.462928	1.69717
0.464968	1.785
0.466925	1.87836
0.468907	1.97904
0.470918	2.08585
0.472889	2.19804
0.474876	2.31949
0.476932	2.44944
0.478889	2.58742
0.480892	2.73508
0.482879	2.89356
0.484925	3.06409
0.486934	3.24577
0.488916	3.44027
0.490912	3.64549
0.492989	3.86649
0.494945	4.10298
0.496932	4.3545
0.498892	4.62059
0.500878	4.9103
0.502939	5.21917
0.504927	5.54799
0.506909	5.90092
0.508888	6.28066
0.510883	6.68352
0.512883	7.11524
0.514893	7.57921
0.5169	8.07212
0.518887	8.59802
0.520916	9.1652
0.525904	10.8021
0.530868	12.6111
0.532847	13.4473
0.534913	14.3402
0.536882	15.3022
0.538933	16.3183
0.540946	17.3972
0.542876	18.535
0.544902	19.7474
0.546925	21.0468
0.548895	22.402
0.550883	23.8431
0.552888	25.392
0.554913	27.0128
0.55688	28.7246
0.558901	30.5508
0.560877	32.484
0.562938	34.5337
0.564931	36.6764
0.566921	38.9286
0.568907	41.2826
0.570911	43.7604
0.572949	46.3688
0.574924	49.0722
0.576885	51.9063
0.578884	54.8948
0.580902	58.0013
0.582865	61.2349
0.584859	64.6435
0.586898	68.1694
0.588958	71.8681
0.590953	75.6774
0.592902	79.6266
0.59492	83.6931
0.596923	87.9263
0.59892	92.2955
0.600903	96.7398
0.60591	108.696
0.610902	121.259
0.612901	126.568
0.614922	132.018
0.61688	137.691
0.618897	143.411
0.620901	149.252
0.622962	155.297
0.624903	161.419
0.626838	167.603
0.628867	174.01
0.630893	180.503
0.632882	187.139
0.634868	193.912
0.636897	200.755
0.63889	207.817
0.640876	214.919
0.642909	222.122
0.644912	229.413
0.646921	236.779
0.648936	244.371
0.650921	251.883
0.652894	259.515
0.654894	267.35
0.656865	275.188
0.658867	283.152
0.660896	291.311
0.662896	299.466
0.664912	307.894
0.666918	316.249
0.668914	324.703
0.670939	333.172
0.672911	341.697
0.674916	350.442
0.676881	359.115
0.678859	367.784
0.68093	376.845
0.682882	385.703
0.684907	394.732
0.686868	403.855
0.688909	413.05
0.690929	422.494
0.692912	431.82
0.694928	441.038
0.696912	450.696
0.698923	460.097
0.699981	465.393
0.700153	466.537
0.699156	461.26
0.697119	452.031
0.695115	442.78
0.693116	433.568
0.691135	424.448
0.68907	415.171
0.687097	406.13
0.685086	396.962
0.683069	388.154
0.681077	379.292
0.679075	370.381
0.677092	361.675
0.675124	353.1
0.673109	344.417
0.671117	335.952
0.669106	327.453
0.667129	319.096
0.66512	310.708
0.663042	302.306
0.661066	294.112
0.659033	286.04
0.657049	278.058
0.655064	270.165
0.653039	262.28
0.651043	254.633
0.64912	247.041
0.647124	239.525
0.645142	232.051
0.643083	224.815
0.641125	217.564
0.639097	210.41
0.637098	203.311
0.635048	196.404
0.633074	189.527
0.631055	182.735
0.629077	176.163
0.627052	169.734
0.625085	163.512
0.623109	157.338
0.621079	151.242
0.619093	145.334
0.617099	139.554
0.615107	133.852
0.613149	128.323
0.611127	122.956
0.6091	117.655
0.607117	112.515
0.605076	107.523
0.603099	102.691
0.601106	97.9615
0.599132	93.4867
0.597138	89.0651
0.59512	84.7719
0.59312	80.6687
0.591116	76.6839
0.589131	72.7842
0.587149	69.0866
0.585096	65.4852
0.583104	62.0386
0.581106	58.7546
0.579081	55.6086
0.577101	52.5645
0.575117	49.6903
0.573154	46.9637
0.567978	40.6931
0.562907	34.8469
0.560902	32.7725
0.558911	30.8271
0.55689	28.977
0.554875	27.2524
0.552852	25.616
0.550882	24.0516
0.548862	22.5976
0.54691	21.2311
0.544911	19.9243
0.542921	18.6987
0.540923	17.5456
0.538924	16.4583
0.536921	15.4361
0.534855	14.4643
0.532898	13.5638
0.530828	12.72
0.52889	11.9357
0.526869	11.1961
0.524875	10.5008
0.522846	9.85902
0.520924	9.25448
0.518902	8.68191
0.516888	8.15039
0.514904	7.65404
0.512895	7.18658
0.510908	6.74943
0.508916	6.34379
0.506927	5.96183
0.504942	5.60553
0.502888	5.27217
0.500884	4.95977
0.498873	4.66764
0.496908	4.40079
0.494954	4.14879
0.49295	3.90662
0.490966	3.68626
0.488923	3.47723
0.486933	3.28161
0.48184	2.85461
0.476678	2.46966
0.474701	2.3391
0.472694	2.21779
0.470716	2.10551
0.468746	1.99843
0.466714	1.89799
0.464737	1.8043
0.462745	1.71596
0.460742	1.63275
0.4587	1.5536
0.456643	1.48039
0.454667	1.41118
0.452673	1.34672
0.450741	1.28617
0.448721	1.22864
0.446685	1.1749
0.444742	1.12466
0.442718	1.07649
0.440681	1.03111
0.438705	0.988566
0.436695	0.947915
0.434705	0.90999
0.432665	0.873331
0.430709	0.839341
0.428674	0.807191
0.426705	0.776647
0.424664	0.747633
0.422648	0.719964
0.420703	0.693857
0.418717	0.669357
0.41669	0.645776
0.414745	0.623419
0.412739	0.602122
0.410675	0.581673
0.408697	0.562462
0.406671	0.543878
0.404713	0.52626
0.402711	0.509357
0.400704	0.493399
0.395611	0.457188
0.39051	0.422872
0.388523	0.410672
0.386522	0.398941
0.384514	0.387552
0.38252	0.376619
0.380544	0.366087
0.378475	0.356015
0.376495	0.346391
0.37451	0.337141
0.372531	0.328098
0.370512	0.319384
0.368547	0.311135
0.366486	0.303079
0.364517	0.29529
0.362564	0.287798
0.36053	0.280662
0.358534	0.27362
0.356522	0.266753
0.354496	0.260192
0.352473	0.253707
0.350487	0.247578
0.34848	0.241628
0.346524	0.235688
0.344479	0.230132
0.342492	0.224761
0.340558	0.21934
0.338474	0.214165
0.336547	0.209098
0.334549	0.204254
0.33253	0.199458
0.330495	0.194741
0.328497	0.190211
0.326443	0.185809
0.324499	0.181532
0.322531	0.177396
0.320438	0.173247
0.318475	0.169307
0.316502	0.165422
0.314501	0.161601
0.312509	0.157952
0.31053	0.154302
0.308497	0.1507
0.306509	0.147259
0.304512	0.143897
0.302554	0.140576
0.300501	0.137294
0.298495	0.134144
0.296516	0.130982
0.29448	0.12792
0.292563	0.124929
0.290526	0.121984
0.288526	0.119106
0.286561	0.116299
0.284568	0.11353
0.282536	0.11084
0.280525	0.108163
0.278534	0.105494
0.276478	0.102917
0.274532	0.10037
0.27248	0.0978687
0.270493	0.0954862
0.268489	0.0930787
0.26656	0.090751
0.264525	0.0884223
0.262544	0.0861157
0.260535	0.0839125
0.25855	0.0817338
0.256569	0.0795453
0.254515	0.0774083
0.252522	0.0752681
0.250517	0.0731998
0.248496	0.0711602
0.246509	0.0691844
0.244493	0.0671465
0.242505	0.0652316
0.240523	0.0633186
0.238541	0.0614181
0.236537	0.0595484
0.234555	0.0576847
0.232483	0.0559214
0.230523	0.0541014
0.228507	0.0523327
0.226494	0.0506038
0.224481	0.0488441
0.222491	0.0471893
0.220494	0.0455496
0.218529	0.0438879
0.216524	0.0422336
0.214519	0.0406644
0.209447	0.0366975
0.204352	0.0328498
0.202333	0.031333
0.200358	0.0298828
0.198312	0.0284529
0.19632	0.027035
0.194365	0.0256486
0.19234	0.0242288
0.1903	0.0228528
0.188412	0.021532
0.186364	0.0201636
0.184353	0.0188503
0.18238	0.0175565
0.18039	0.0162707
0.178333	0.0149563
0.176345	0.0136807
0.174299	0.0124523
0.172353	0.0111866
0.170372	0.0100042
0.168337	8.82326e-3
0.16634	7.61641e-3
0.164358	6.45796e-3
0.162369	5.29917e-3
0.160363	4.16002e-3
0.158348	3.02669e-3
0.156361	1.90407e-3
0.1544	0.802687e-3
0.152333	-0.274857e-3
0.150313	-1.38798e-3
0.14829	-2.46012e-3
0.146288	-3.48756e-3
0.14431	-4.55327e-3
0.142347	-5.56605e-3
0.140336	-6.57058e-3
0.138311	-7.57509e-3
0.136346	-8.5453e-3
0.134347	-9.51314e-3
0.132369	-0.0104617
0.13036	-0.0114128
0.128345	-0.0123486
0.126318	-0.0132651
0.124364	-0.014199
0.122323	-0.0150838
0.120285	-0.0159765
0.118335	-0.0168223
0.116311	-0.0177022
0.114304	-0.0185482
0.11237	-0.0193504
0.110349	-0.0202064
0.108308	-0.0210044
0.106359	-0.0217889
0.104369	-0.0226042
0.102337	-0.0233602
0.100345	-0.0241242
0.0983548	-0.0248476
0.0963307	-0.0255956
0.0943575	-0.0263135
0.092344	-0.0270156
0.0903559	-0.0277316
0.0883605	-0.0284356
0.0863947	-0.0290913
0.0843833	-0.0297278
0.0823719	-0.0303857
0.08037	-0.0310088
0.0783608	-0.0316231
0.0764098	-0.0322505
0.0743507	-0.0328508
0.0723446	-0.0334399
0.0703099	-0.0340042
0.0683781	-0.0345725
0.0663794	-0.0351145
0.0643203	-0.0356578
0.0623598	-0.0361799
0.0603919	-0.0366698
0.0583455	-0.0371691
0.0563765	-0.037644
0.0543959	-0.0381263
0.0523834	-0.0385974
0.0503933	-0.0390189
0.0483299	-0.0394962
0.0463323	-0.0399055
0.0443315	-0.0403169
0.0423265	-0.0407131
0.0403342	-0.0411024
0.0383419	-0.0414899
0.0363475	-0.0418444
0.0343774	-0.0422058
0.0323989	-0.0425494
0.0303462	-0.0428792
0.0284165	-0.0432048
0.0263605	-0.0435197
0.0243661	-0.0438331
0.0223558	-0.0441071
0.0203136	-0.0444152
0.0183393	-0.0446816
0.016364	-0.0449395
0.0143272	-0.0452206
0.0123624	-0.0454647
0.0103245	-0.0457085
8.33965e-3	-0.0459263
6.38024e-3	-0.0461615
4.34975e-3	-0.046375
2.36806e-3	-0.0465739
0.38213e-3	-0.0467905
-1.71201e-3	-0.0469844
-3.68522e-3	-0.0471902
-5.67327e-3	-0.047348
-7.66769e-3	-0.0475433
-9.64302e-3	-0.0477069
-0.0116534	-0.0478498
-0.013704	-0.0480372
-0.0156263	-0.0481762
-0.0176631	-0.0483302
-0.0196289	-0.0484741
-0.0216477	-0.0486182
-0.0236453	-0.0487592
-0.0256737	-0.0488788
-0.0276628	-0.0490151
-0.02967	-0.0491297
-0.0317143	-0.0492612
-0.0336726	-0.0493595
-0.0357063	-0.0495041
-0.0377018	-0.049619
-0.0396898	-0.0497037
-0.0416694	-0.04983
-0.0436596	-0.0499173
-0.0456359	-0.0500231
-0.0476399	-0.0501129
-0.0496566	-0.0502263
-0.0516659	-0.0503266
-0.0537134	-0.050408
-0.0556579	-0.050516
-0.057699	-0.0505979
-0.0596987	-0.0507009
-0.0616868	-0.050766
-0.063677	-0.05087
-0.0657117	-0.0509574
-0.0676435	-0.0510158
-0.0696305	-0.0511203
-0.0716875	-0.0511885
-0.0736406	-0.0512678
-0.0756881	-0.051356
-0.0776729	-0.051441
-0.0796971	-0.0515168
-0.0816904	-0.0515786
-0.0836679	-0.0516611
-0.0856792	-0.0517425
-0.0876758	-0.051825
-0.0896437	-0.0518813
-0.0916371	-0.0519711
-0.0936845	-0.0520449
-0.0956407	-0.0520855
-0.0976627	-0.0521889
-0.0996943	-0.052251
-0.101671	-0.0523339
-0.103725	-0.0523939
-0.105638	-0.0524657
-0.107669	-0.0525427
-0.109672	-0.0526072
-0.111684	-0.0526867
-0.113657	-0.0527548
-0.115657	-0.0528363
-0.117632	-0.0528824
-0.119624	-0.0529773
-0.12165	-0.0530367
-0.123627	-0.0530984
-0.125628	-0.0531863
-0.127652	-0.0532503
-0.129655	-0.0533294
-0.131677	-0.0533911
-0.133664	-0.0534585
-0.135678	-0.0535259
-0.137628	-0.0535939
-0.139692	-0.053669
-0.141662	-0.0537488
-0.143634	-0.0538236
-0.145625	-0.0538677
-0.147618	-0.0539774
-0.149653	-0.0540356
-0.151665	-0.0540887
-0.153616	-0.0541662
-0.155691	-0.054236
-0.15766	-0.0543178
-0.159687	-0.0543734
-0.161702	-0.0544572
-0.163641	-0.0545298
-0.165703	-0.0546113
-0.167684	-0.0546713
-0.169645	-0.054747
-0.171602	-0.0548251
-0.17362	-0.054871
-0.175626	-0.0549795
-0.177617	-0.0550363
-0.179622	-0.0551023
-0.181635	-0.0551882
-0.18368	-0.0552669
-0.18565	-0.0553396
-0.187673	-0.0553953
-0.189656	-0.0554778
-0.191685	-0.0555474
-0.19367	-0.0556158
-0.195625	-0.0556869
-0.197629	-0.0557559
-0.199605	-0.0558517
-0.201626	-0.0559199
-0.203662	-0.0560184
-0.205629	-0.0560773
-0.20759	-0.0561576
-0.209672	-0.0562294
-0.211666	-0.0563204
-0.213648	-0.0564041
-0.215634	-0.0564698
-0.217624	-0.0565459
-0.219583	-0.0566104
-0.221586	-0.0567011
-0.22357	-0.05677
-0.225585	-0.0568656
-0.227592	-0.0569219
-0.229594	-0.0569906
-0.231675	-0.0570713
-0.233625	-0.0571488
-0.235652	-0.0572455
-0.237655	-0.0573056
-0.239652	-0.0574046
-0.241645	-0.0574806
-0.243648	-0.0575586
-0.245602	-0.0576219
-0.247587	-0.0577118
-0.249656	-0.0577963
-0.251593	-0.0578466
-0.25364	-0.0579614
-0.255621	-0.0580317
-0.257585	-0.0581034
-0.259627	-0.0582025
-0.261649	-0.0582739
-0.263625	-0.0583651
-0.26561	-0.0584346
-0.267682	-0.0585332
-0.269689	-0.0586178
-0.271621	-0.0586946
-0.273641	-0.0587642
-0.275588	-0.0588626
-0.27763	-0.0589547
-0.279643	-0.0590092
-0.281606	-0.0591287
-0.283667	-0.0591952
-0.285659	-0.0592958
-0.287672	-0.0593628
-0.289681	-0.0594483
-0.291648	-0.0595387
-0.293638	-0.0596256
-0.295649	-0.0597074
-0.29764	-0.0597974
-0.299603	-0.0598915
-0.301645	-0.0599555
-0.303601	-0.0600659
-0.305628	-0.0601319
-0.307638	-0.0602252
-0.309623	-0.0603112
-0.311631	-0.0604032
-0.313624	-0.0605065
-0.315626	-0.0605881
-0.317612	-0.0606897
-0.319629	-0.0607768
-0.321558	-0.0608661
-0.323566	-0.0609496
-0.325596	-0.0610734
-0.327559	-0.0611591
-0.329615	-0.0612118
-0.331608	-0.061326
-0.333589	-0.0613821
-0.335627	-0.0614895
-0.33764	-0.0615784
-0.339673	-0.0616942
-0.341635	-0.0617844
-0.343632	-0.061886
-0.345656	-0.0619693
-0.347635	-0.0620719
-0.349578	-0.0621876
-0.35162	-0.0622489
-0.353615	-0.0623462
-0.355607	-0.0624417
-0.357598	-0.0625479
-0.359624	-0.0626419
-0.361632	-0.0627424
-0.363662	-0.0628298
-0.365669	-0.062928
-0.367637	-0.0630349
-0.3697	-0.063121
-0.371629	-0.0632431
-0.373614	-0.06331
-0.375627	-0.0634478
-0.377568	-0.0635304
-0.379622	-0.0636255
-0.381619	-0.0637365
-0.383611	-0.0638183
-0.385642	-0.0639189
-0.387637	-0.0640273
-0.38965	-0.0641109
-0.391691	-0.0642439
-0.393688	-0.0643501
-0.395635	-0.0644332
-0.397685	-0.0645696
-0.3996	-0.0646914
-0.401626	-0.0647763
-0.403626	-0.0648597
-0.405637	-0.0649566
-0.407634	-0.0650907
-0.409611	-0.0651819
-0.411617	-0.0653269
-0.413623	-0.0654094
-0.415668	-0.0655236
-0.417616	-0.0656122
-0.419605	-0.0657283
-0.421631	-0.0658183
-0.423599	-0.0659097
-0.425637	-0.0660589
-0.427673	-0.0661675
-0.429599	-0.0662743
-0.431603	-0.06639
-0.43361	-0.0665095
-0.435594	-0.0666258
-0.437618	-0.0666947
-0.439626	-0.0668341
-0.441625	-0.0669615
-0.443632	-0.0670761
-0.445632	-0.067135
-0.447635	-0.0672932
-0.449628	-0.0674129
-0.451619	-0.0675318
-0.453634	-0.0676462
-0.455614	-0.0677812
-0.457594	-0.0679045
-0.459592	-0.068008
-0.461579	-0.0681098
-0.463634	-0.0682339
-0.465655	-0.0683385
-0.467647	-0.068432
-0.469699	-0.0685858
-0.471659	-0.0686481
-0.473657	-0.0687355
-0.475644	-0.0689565
-0.477635	-0.0690777
-0.479657	-0.0692168
-0.481624	-0.0693048
-0.483586	-0.0694313
-0.485626	-0.0695285
-0.487613	-0.0696958
-0.489644	-0.0698009
-0.491652	-0.0699668
-0.493653	-0.0700888
-0.49566	-0.0701844
-0.497686	-0.0703367
-0.499244	-0.0703907
-0.499981	-0.0704636
-0.498818	-0.0703889
-0.496802	-0.0703069
-0.494823	-0.0701743
-0.492839	-0.070062
-0.490852	-0.069857
-0.48881	-0.0698067
-0.486783	-0.0696725
-0.484782	-0.0695185
-0.482807	-0.069384
-0.480778	-0.0693104
-0.478788	-0.0691721
-0.476806	-0.069035
-0.474802	-0.0689251
-0.472819	-0.0687996
-0.470797	-0.0686584
-0.468798	-0.0685381
-0.466865	-0.0684431
-0.464842	-0.0683033
-0.462804	-0.0681805
-0.460781	-0.0680586
-0.458796	-0.067941
-0.456753	-0.0678486
-0.454809	-0.0677104
-0.452763	-0.0676128
-0.450785	-0.0674957
-0.448818	-0.0673727
-0.446836	-0.0672274
-0.444798	-0.0671463
-0.442803	-0.0670146
-0.440816	-0.0669112
-0.43881	-0.0667795
-0.436802	-0.0666923
-0.434811	-0.0665901
-0.432731	-0.0664379
-0.430816	-0.0663611
-0.428835	-0.0662505
-0.426799	-0.0661427
-0.424769	-0.0660111
-0.422831	-0.0659084
-0.420813	-0.0658067
-0.418801	-0.0657052
-0.416833	-0.0655623
-0.414795	-0.0654638
-0.412835	-0.0653671
-0.41078	-0.0652196
-0.408833	-0.0651596
-0.406811	-0.0650169
-0.404792	-0.0649165
-0.402784	-0.064796
-0.400769	-0.0646943
-0.398796	-0.0645857
-0.396811	-0.0644835
-0.394839	-0.0643872
-0.392846	-0.0642533
-0.390859	-0.0641565
-0.388842	-0.0640425
-0.386862	-0.0639414
-0.384811	-0.0638505
-0.382818	-0.0637471
-0.380791	-0.0636517
-0.378766	-0.0635533
-0.376812	-0.0634585
-0.374775	-0.0633437
-0.37282	-0.0632585
-0.370857	-0.0631526
-0.368775	-0.0630791
-0.366813	-0.0629626
-0.36486	-0.0628892
-0.362834	-0.0627489
-0.360827	-0.0626541
-0.358819	-0.0625513
-0.356761	-0.0624767
-0.35479	-0.0623641
-0.352761	-0.0622524
-0.350778	-0.0621711
-0.348715	-0.0620917
-0.346822	-0.0620095
-0.344854	-0.0618711
-0.342793	-0.0618127
-0.340811	-0.0617032
-0.338798	-0.0615972
-0.336829	-0.0614933
-0.334832	-0.0613877
-0.332784	-0.0613082
-0.330818	-0.0612137
-0.328818	-0.061123
-0.326797	-0.0610363
-0.324809	-0.0609415
-0.322789	-0.0608152
-0.320803	-0.0607612
-0.318806	-0.0606713
-0.316801	-0.0605666
-0.314833	-0.0604807
-0.312824	-0.060387
-0.310833	-0.0602994
-0.308808	-0.0602045
-0.306817	-0.0601128
-0.304833	-0.0600197
-0.302794	-0.0599336
-0.300787	-0.0598179
-0.298865	-0.0597572
-0.296833	-0.0596833
-0.294841	-0.0596128
-0.292875	-0.0595098
-0.290838	-0.0594455
-0.288847	-0.059353
-0.286879	-0.0592454
-0.284855	-0.0591602
-0.282836	-0.0590225
-0.280828	-0.0589387
-0.27882	-0.0588633
-0.276857	-0.0588269
-0.274815	-0.0587336
-0.272805	-0.0586579
-0.270846	-0.0585553
-0.268845	-0.0584863
-0.26682	-0.0584111
-0.264814	-0.058323
-0.262825	-0.0582322
-0.260819	-0.0581613
-0.258806	-0.0580865
-0.256804	-0.05797
-0.254809	-0.0579366
-0.252815	-0.0578407
-0.250808	-0.0577592
-0.248858	-0.0576754
-0.246817	-0.057618
-0.244853	-0.0575222
-0.242848	-0.0574514
-0.240812	-0.0573598
-0.238833	-0.0572772
-0.236854	-0.0572109
-0.234881	-0.0571047
-0.232874	-0.0570366
-0.230807	-0.0569633
-0.228826	-0.0568979
-0.226843	-0.0568089
-0.224824	-0.0567321
-0.222814	-0.0566509
-0.220795	-0.0565652
-0.218794	-0.0564902
-0.216856	-0.0564311
-0.214831	-0.0563535
-0.212869	-0.0562552
-0.210852	-0.0562047
-0.20881	-0.0561172
-0.206841	-0.0560549
-0.204861	-0.0559703
-0.202828	-0.0559024
-0.200848	-0.0558121
-0.198855	-0.0557333
-0.196858	-0.0556601
-0.194818	-0.0555909
-0.192865	-0.0555257
-0.190888	-0.0554209
-0.188896	-0.0553729
-0.186876	-0.0552971
-0.184917	-0.0552118
-0.182888	-0.0551328
-0.180894	-0.0550628
-0.178851	-0.0549933
-0.176823	-0.054912
-0.174796	-0.054828
-0.172863	-0.0547591
-0.170895	-0.0547061
-0.168824	-0.054612
-0.16689	-0.0545545
-0.164907	-0.0544536
-0.162896	-0.0543925
-0.160906	-0.0543088
-0.158918	-0.0542538
-0.156907	-0.0541813
-0.154866	-0.0541269
-0.152882	-0.0540344
-0.150862	-0.0539758
-0.148894	-0.0539002
-0.146865	-0.0538124
-0.144866	-0.0537502
-0.142888	-0.0536822
-0.140908	-0.0536165
-0.138874	-0.0535302
-0.136901	-0.0534725
-0.134926	-0.0534032
-0.132924	-0.0533394
-0.130895	-0.0532347
-0.128857	-0.0531874
-0.126912	-0.053104
-0.124836	-0.0530089
-0.122858	-0.0529583
-0.120894	-0.0528818
-0.118857	-0.0528289
-0.116873	-0.0527308
-0.114941	-0.0526769
-0.112873	-0.0525932
-0.11092	-0.0525288
-0.108881	-0.0524373
-0.106909	-0.0523968
-0.104917	-0.05231
-0.102903	-0.0522279
-0.100888	-0.0521599
-0.0988987	-0.0520954
-0.0968904	-0.0520241
-0.0948854	-0.0519253
-0.0928878	-0.0518612
-0.0909114	-0.0517904
-0.0889255	-0.051716
-0.0869258	-0.0516186
-0.0849462	-0.051564
-0.082955	-0.051488
-0.0809033	-0.0514003
-0.078929	-0.0513323
-0.0768677	-0.0512418
-0.0749104	-0.0511679
-0.0729033	-0.0510692
-0.070929	-0.051006
-0.0689272	-0.0509232
-0.0669211	-0.0508492
-0.0649182	-0.0507405
-0.0629323	-0.0506836
-0.060924	-0.0505877
-0.0589519	-0.0504976
-0.0569373	-0.0504044
-0.054927	-0.0503182
-0.0529241	-0.0502176
-0.0509021	-0.0501261
-0.048861	-0.0500259
-0.0468761	-0.0499373
-0.0449231	-0.0498487
-0.0428724	-0.0497163
-0.0409321	-0.0496347
-0.0389281	-0.0495235
-0.0369358	-0.0494085
-0.0349584	-0.0492986
-0.0329342	-0.0491832
-0.0309356	-0.049073
-0.028939	-0.0489416
-0.0269393	-0.048813
-0.0248855	-0.0486842
-0.0228889	-0.0485591
-0.0209582	-0.0483961
-0.0189457	-0.0482874
-0.0169184	-0.0481166
-0.0149208	-0.0479808
-0.0129391	-0.0478056
-0.0109288	-0.0476611
-8.92163e-3	-0.047495
-6.93994e-3	-0.0473207
-4.8755e-3	-0.0471335
-2.95216e-3	-0.0469541
-0.945009e-3	-0.0467657
1.09927e-3	-0.046543
3.09794e-3	-0.0463681
5.0722e-3	-0.0461411
7.13027e-3	-0.0459302
9.10241e-3	-0.0456859
0.0110915	-0.0454631
0.0130647	-0.0452261
0.0150963	-0.0449657
0.0171172	-0.0447003
0.0190745	-0.0444411
0.02107	-0.0441701
0.0230644	-0.0438526
0.025114	-0.0435827
0.0270533	-0.0432524
0.0291028	-0.0429511
0.0310983	-0.0426078
0.033098	-0.0422796
0.0351137	-0.0419192
0.0370986	-0.0415666
0.0390527	-0.0411845
0.0410725	-0.0408189
0.0430723	-0.0404204
0.0450402	-0.0400035
0.0471057	-0.0396094
0.0490863	-0.0391599
0.0511072	-0.0387211
0.0531165	-0.0382562
0.055095	-0.0378061
0.0571085	-0.0373329
0.059139	-0.0368399
0.0610846	-0.03632
0.0631003	-0.035841
0.0650576	-0.0353124
0.0670838	-0.034752
0.0690814	-0.0342161
0.0710578	-0.0336474
0.0730554	-0.0330705
0.0751092	-0.0324753
0.0771429	-0.031884
0.0790843	-0.0312681
0.0811286	-0.0306526
0.0830667	-0.0299965
0.0851397	-0.0293699
0.0871012	-0.028695
0.0891306	-0.028019
0.0910614	-0.027345
0.0930983	-0.0266367
0.0950831	-0.0259503
0.0970723	-0.0252045
0.0990953	-0.0244735
0.101067	-0.0237205
0.103061	-0.0229773
0.105103	-0.0221854
0.107087	-0.0214278
0.109073	-0.0206202
0.11111	-0.0197985
0.113072	-0.0190027
0.115054	-0.0181833
0.117047	-0.0173394
0.119041	-0.0164657
0.121012	-0.0156135
0.123067	-0.0147146
0.12505	-0.0138581
0.127122	-0.0129046
0.129131	-0.0120135
0.131111	-0.0110747
0.133087	-0.0101337
0.135091	-9.17925e-3
0.137097	-8.21258e-3
0.13904	-7.25179e-3
0.141069	-6.25345e-3
0.143068	-5.25732e-3
0.14505	-4.24414e-3
0.147061	-3.23166e-3
0.149064	-2.17117e-3
0.151073	-1.14302e-3
0.152698	-0.289068e-3
0.153468	0.166705e-3
0.153563	0.208426e-3
