C:\Documents and Settings\Potenciostato SP150\Escritorio\Alfonso\LIV_1_01.mpr
Ewe/V vs. SCE	<I>/mA
0.612936	76.4783
0.614073	80.4712
0.616102	87.6984
0.61807	94.909
0.623217	113.981
0.628289	133.26
0.630255	141.248
0.632264	149.34
0.634234	157.517
0.636308	165.885
0.638286	174.365
0.640307	182.909
0.642263	191.596
0.6443	200.131
0.646317	208.902
0.648294	217.636
0.650257	226.53
0.652248	235.524
0.654245	244.706
0.656287	253.853
0.658246	263.209
0.660256	272.213
0.66229	281.694
0.664309	291.334
0.66627	300.188
0.668283	309.575
0.670271	318.21
0.672297	327.029
0.674306	336.594
0.676258	346.494
0.678266	356.433
0.680278	366.656
0.682261	376.791
0.684251	387.28
0.686261	397.931
0.688253	408.123
0.690316	419.355
0.692309	430.159
0.694305	440.585
0.69633	451.874
0.698312	462.478
0.69972	469.86
0.69984	471.897
0.700164	472.782
0.699159	467.425
0.697095	457.524
0.695118	447.583
0.693126	436.115
0.691099	427.205
0.689104	416.695
0.687099	406.882
0.685038	397.298
0.683063	387.413
0.681069	377.626
0.679122	368.136
0.677082	358.426
0.675138	348.918
0.673107	339.206
0.671132	329.525
0.66913	319.931
0.667105	310.438
0.665082	300.837
0.663035	291.215
0.661085	281.77
0.659052	272.515
0.657072	263.251
0.655078	253.711
0.653079	244.544
0.651051	235.608
0.649081	226.477
0.647097	217.561
0.645077	208.696
0.643072	200.017
0.641092	191.368
0.639094	182.381
0.637097	173.679
0.635094	165.114
0.633086	156.737
0.631052	148.559
0.629058	140.462
0.62703	132.01
0.625062	124.197
0.623096	116.493
0.62109	108.784
0.619091	101.284
0.617062	93.8422
0.615069	86.438
0.613071	79.1827
0.611031	72.0581
0.609072	65.0009
0.607059	58.1664
0.605093	51.3969
0.603052	44.7222
0.601089	38.1391
0.599107	31.7376
0.597099	25.5103
0.595096	19.4208
0.593111	13.5242
0.591103	7.77574
0.589065	2.0432
0.587052	-3.49001
0.585034	-8.89718
0.583028	-14.1992
0.58106	-19.3077
0.579062	-24.25
0.577043	-29.0934
0.575038	-33.707
0.573079	-38.1787
0.571088	-42.5082
0.569049	-46.7856
0.567082	-50.8584
0.565093	-54.6128
0.563118	-58.3482
0.561029	-62.066
0.559034	-65.6208
0.557048	-69.0172
0.555085	-72.2169
0.553028	-75.327
0.551038	-78.3086
0.549084	-81.1951
0.547034	-83.9041
0.545068	-86.5179
0.543062	-88.9804
0.5411	-91.3941
0.539071	-93.5322
0.537089	-95.6824
0.53505	-97.7146
0.533016	-99.648
0.531042	-101.433
0.529021	-103.234
0.527058	-104.702
0.52503	-106.345
0.52307	-107.71
0.521047	-109.094
0.519108	-110.314
0.517049	-111.553
0.515078	-112.709
0.513016	-113.847
0.511105	-114.738
0.509038	-115.886
0.507073	-116.676
0.505027	-117.531
0.503074	-118.281
0.501115	-119.003
0.499022	-119.705
0.497115	-120.358
0.495097	-120.954
0.493115	-121.555
0.491101	-122.039
0.489114	-122.563
0.487125	-122.973
0.485147	-123.354
0.483106	-123.797
0.481141	-124.158
0.479053	-124.547
0.477088	-124.908
0.475105	-125.25
0.473075	-125.514
0.471113	-125.776
0.469099	-125.929
0.467211	-126.176
0.465166	-126.397
0.463085	-126.624
0.461208	-126.813
0.459116	-127.077
0.45711	-127.222
0.455127	-127.455
0.453085	-127.549
0.451217	-127.719
0.449139	-127.818
0.447157	-127.954
0.44522	-128.119
0.443124	-128.192
0.441226	-128.328
0.439376	-128.477
0.437258	-128.533
0.435324	-128.638
0.433162	-128.667
0.431136	-128.756
0.429256	-128.857
0.427185	-128.922
0.425134	-129.013
0.423177	-129.098
0.421163	-129.154
0.419217	-129.175
0.417173	-129.23
0.415274	-129.228
0.413238	-129.286
0.411215	-129.358
0.409193	-129.402
0.407207	-129.427
0.405214	-129.517
0.403265	-129.484
0.401293	-129.569
0.39925	-129.527
0.397233	-129.602
0.395196	-129.658
0.393305	-129.685
0.391242	-129.75
0.389252	-129.754
0.387299	-129.792
0.385317	-129.838
0.383199	-129.81
0.381156	-129.848
0.379186	-129.833
0.377184	-129.882
0.375251	-129.918
0.373209	-129.947
0.371206	-129.996
0.369231	-129.998
0.367268	-129.975
0.365208	-130.014
0.363231	-129.986
0.361285	-130.007
0.359224	-130.089
0.357239	-130.098
0.355141	-130.131
0.353114	-130.131
0.351109	-130.152
0.349187	-130.123
0.34728	-130.161
0.345147	-130.1
0.343164	-130.144
0.341196	-130.14
0.339167	-130.15
0.337218	-130.203
0.335174	-130.193
0.333236	-130.219
0.331272	-130.223
0.329145	-130.172
0.327198	-130.243
0.32525	-130.246
0.323169	-130.276
0.321181	-130.343
0.319175	-130.311
0.317146	-130.374
0.315129	-130.313
0.313191	-130.342
0.311245	-130.305
0.309163	-130.357
0.307241	-130.342
0.30514	-130.378
0.303229	-130.357
0.301153	-130.447
0.299279	-130.38
0.297157	-130.408
0.295252	-130.354
0.293172	-130.373
0.291143	-130.318
0.289298	-130.45
0.287248	-130.407
0.285255	-130.484
0.283164	-130.472
0.281306	-130.47
0.279188	-130.421
0.277101	-130.448
0.275094	-130.386
0.273193	-130.537
0.271245	-130.439
0.269165	-130.557
0.267255	-130.524
0.26518	-130.56
0.263209	-130.518
0.26119	-130.5
0.25915	-130.487
0.257192	-130.517
0.255202	-130.444
0.253161	-130.554
0.25123	-130.502
0.249076	-130.549
0.247173	-130.544
0.245179	-130.531
0.24316	-130.512
0.241192	-130.516
0.239141	-130.489
0.23716	-130.541
0.23527	-130.533
0.233189	-130.622
0.23126	-130.574
0.229185	-130.65
0.22722	-130.568
0.22511	-130.607
0.223157	-130.552
0.221113	-130.598
0.219131	-130.593
0.217221	-130.624
0.215183	-130.6
0.213257	-130.651
0.211175	-130.579
0.209192	-130.631
0.207121	-130.499
0.205166	-130.604
0.203261	-130.546
0.201122	-130.619
0.199129	-130.594
0.197168	-130.655
0.195163	-130.601
0.193108	-130.691
0.191126	-130.556
0.189275	-130.653
0.187204	-130.596
0.185192	-130.667
0.183171	-130.625
0.181168	-130.708
0.17913	-130.649
0.177146	-130.751
0.175057	-130.65
0.173062	-130.722
0.171267	-130.619
0.169185	-130.746
0.167161	-130.655
0.165069	-130.764
0.163155	-130.701
0.161135	-130.766
0.159135	-130.702
0.157241	-130.761
0.15532	-130.649
0.153118	-130.703
0.151119	-130.667
0.149222	-130.728
0.147165	-130.73
0.145203	-130.761
0.14315	-130.73
0.141181	-130.696
0.139144	-130.694
0.137152	-130.681
0.135215	-130.668
0.133163	-130.725
0.131176	-130.688
0.129181	-130.771
0.127133	-130.771
0.12524	-130.748
0.123116	-130.75
0.121094	-130.689
0.119179	-130.692
0.117117	-130.708
0.115095	-130.722
0.11322	-130.746
0.111108	-130.736
0.10922	-130.743
0.107182	-130.755
0.105183	-130.738
0.10306	-130.699
0.10116	-130.757
0.0992295	-130.751
0.0971545	-130.789
0.0951686	-130.78
0.0931837	-130.825
0.0911129	-130.774
0.0891758	-130.806
0.0872163	-130.69
0.0851498	-130.78
0.0832148	-130.765
0.0811599	-130.801
0.0791835	-130.83
0.0772177	-130.843
0.0751745	-130.854
0.0732162	-130.9
0.0711316	-130.847
0.06924	-130.859
0.0670716	-130.782
0.0651175	-130.869
0.0631846	-130.814
0.0611807	-130.86
0.0592244	-130.886
0.0571473	-130.851
0.0552494	-130.848
0.0531744	-130.832
0.0511672	-130.787
0.0491441	-130.795
0.0471306	-130.794
0.045133	-130.863
0.0431566	-130.895
0.0410519	-130.924
0.0391349	-130.921
0.0371978	-130.904
0.0351259	-130.902
0.0331591	-130.833
0.0311975	-130.86
0.0292371	-130.826
0.0271323	-130.881
0.0251443	-130.88
0.0232379	-130.886
0.021095	-130.855
0.0191408	-130.83
0.0171623	-130.789
0.0151966	-130.802
0.013095	-130.766
0.0111218	-130.883
9.16238e-3	-130.853
7.06824e-3	-130.865
5.17885e-3	-130.878
3.19716e-3	-130.823
1.08074e-3	-130.805
-0.827751e-3	-130.82
-2.84763e-3	-130.813
-4.81659e-3	-130.838
-6.89588e-3	-130.847
-8.81498e-3	-130.873
-0.0109569	-130.912
-0.0128834	-130.907
-0.014794	-130.934
-0.0168797	-130.894
-0.0188253	-130.916
-0.0208855	-130.91
-0.0228534	-130.993
-0.0247544	-130.938
-0.026856	-131.019
-0.0287783	-130.949
-0.030847	-131.011
-0.0328223	-130.913
-0.0349186	-130.941
-0.0368536	-130.86
-0.0387727	-130.97
-0.0409177	-130.903
-0.0429058	-130.992
-0.0449098	-130.906
-0.0468851	-130.953
-0.0489039	-130.88
-0.0508729	-130.933
-0.0528068	-130.877
-0.0548511	-130.934
-0.0568582	-130.899
-0.0588877	-130.987
-0.0608938	-130.931
-0.0628999	-131.027
-0.0648773	-130.925
-0.0668749	-130.942
-0.068777	-130.867
-0.0708192	-130.875
-0.0728656	-130.892
-0.0748505	-130.915
-0.0769308	-130.888
-0.0788722	-130.942
-0.0808401	-130.887
-0.0829162	-130.98
-0.0848205	-130.903
-0.0868976	-130.921
-0.0888157	-130.86
-0.0908462	-130.919
-0.09297	-130.93
-0.0948986	-130.92
-0.0968941	-130.939
-0.0989066	-130.947
-0.100897	-130.921
-0.102912	-131.015
-0.104856	-130.939
-0.10687	-131.017
-0.108842	-130.963
-0.110847	-131.02
-0.112879	-130.995
-0.114839	-131.043
-0.116868	-130.997
-0.118819	-131.073
-0.120822	-130.956
-0.122786	-131.058
-0.124775	-130.954
-0.126843	-131.062
-0.128762	-130.976
-0.130798	-131.086
-0.132859	-130.976
-0.134912	-131.074
-0.136918	-130.943
-0.138829	-131.028
-0.140785	-130.914
-0.142858	-131.062
-0.144792	-130.942
-0.146838	-131.055
-0.148851	-130.963
-0.150908	-131.074
-0.152812	-130.922
-0.154867	-131.023
-0.156898	-130.941
-0.15884	-130.989
-0.160908	-130.917
-0.162815	-131.016
-0.164802	-130.943
-0.166885	-131.04
-0.168816	-130.933
-0.170829	-131.035
-0.172821	-130.932
-0.174784	-130.956
-0.176885	-130.946
-0.178775	-130.984
-0.180823	-130.956
-0.182871	-131.028
-0.184762	-130.947
-0.186835	-131.038
-0.188767	-130.941
-0.190912	-130.96
-0.192846	-130.938
-0.194782	-130.99
-0.196832	-130.998
-0.198825	-131.016
-0.200876	-131.032
-0.20279	-131.061
-0.20489	-131.064
-0.20679	-131.057
-0.208794	-131.006
-0.210872	-131.025
-0.212839	-130.986
-0.214742	-131.051
-0.216863	-131.064
-0.218783	-131.046
-0.220834	-131.029
-0.222791	-131.016
-0.224738	-131.007
-0.226851	-131.023
-0.228723	-131
-0.230735	-131.066
-0.232776	-131.022
-0.23476	-131.065
-0.236835	-131.017
-0.238754	-131.033
-0.240875	-131.008
-0.242771	-131.003
-0.244731	-130.989
-0.246833	-131.059
-0.248759	-130.993
-0.250866	-131.112
-0.252811	-131.081
-0.254822	-131.085
-0.256755	-131.028
-0.258766	-131.038
-0.260879	-130.967
-0.262866	-131.028
-0.264834	-130.99
-0.266851	-131.045
-0.268822	-131.05
-0.270812	-131.086
-0.272762	-131.009
-0.274861	-131.044
-0.276762	-130.959
-0.278746	-130.994
-0.280812	-131.003
-0.282759	-131.018
-0.284861	-131.049
-0.286817	-131.071
-0.288879	-131.074
-0.290838	-131.055
-0.29285	-131.004
-0.294833	-131.027
-0.296785	-131.045
-0.298871	-131.054
-0.30078	-131.117
-0.302725	-131.117
-0.304816	-131.143
-0.306727	-131.116
-0.308801	-131.096
-0.310762	-131.076
-0.312851	-131.065
-0.314839	-131.112
-0.316706	-131.115
-0.318858	-131.104
-0.320763	-131.145
-0.322825	-131.079
-0.32471	-131.082
-0.32675	-131.077
-0.328865	-131.003
-0.330763	-131.032
-0.332729	-131.014
-0.334839	-131.069
-0.33682	-131.092
-0.338722	-131.098
-0.340804	-131.084
-0.342805	-131.083
-0.344753	-131.009
-0.346881	-131.062
-0.348768	-131.003
-0.35078	-131.04
-0.352704	-130.971
-0.354829	-131.109
-0.356699	-131.015
-0.358683	-131.096
-0.360857	-131.009
-0.36278	-131.05
-0.364777	-130.979
-0.366826	-131.05
-0.368773	-130.993
-0.370761	-131.12
-0.372816	-131.03
-0.374745	-131.122
-0.376811	-131.002
-0.378741	-131.114
-0.380741	-131.026
-0.382834	-131.115
-0.384745	-131.065
-0.386744	-131.137
-0.388795	-131.093
-0.390757	-131.172
-0.392786	-131.085
-0.394747	-131.12
-0.396888	-131.034
-0.398796	-131.095
-0.400709	-131.043
-0.402774	-131.106
-0.404804	-131.077
-0.406745	-131.147
-0.408823	-131.123
-0.410788	-131.139
-0.412801	-131.116
-0.414792	-131.123
-0.416757	-131.077
-0.41877	-131.165
-0.420824	-131.124
-0.422763	-131.198
-0.424805	-131.15
-0.426769	-131.179
-0.428851	-131.122
-0.430726	-131.125
-0.432712	-131.07
-0.434814	-131.126
-0.436735	-131.07
-0.438728	-131.192
-0.440778	-131.084
-0.442736	-131.186
-0.444788	-131.136
-0.446759	-131.139
-0.448868	-131.045
-0.450781	-131.095
-0.452703	-130.996
-0.454752	-131.087
-0.45684	-131
-0.458783	-131.151
-0.460707	-131.041
-0.462821	-131.141
-0.464744	-131.015
-0.466767	-131.108
-0.468866	-131.006
-0.470802	-131.146
-0.472787	-131.033
-0.474823	-131.128
-0.476746	-131.069
-0.478723	-131.128
-0.480794	-131.068
-0.48274	-131.159
-0.484727	-131
-0.486767	-131.135
-0.488819	-131.072
-0.490772	-131.146
-0.492789	-131.121
-0.494831	-131.183
-0.496766	-131.12
-0.498764	-131.166
-0.500256	-131.201
-0.498774	-131.077
-0.496739	-131.16
-0.494734	-131.074
-0.492812	-131.164
-0.490788	-131.11
-0.488765	-131.177
-0.486844	-131.108
-0.484697	-131.196
-0.482659	-131.111
-0.480866	-131.159
-0.478702	-131.103
-0.476676	-131.164
-0.474809	-131.181
-0.472746	-131.21
-0.470894	-131.178
-0.468767	-131.189
-0.466771	-131.12
-0.464771	-131.169
-0.46273	-131.074
-0.460683	-131.086
-0.458831	-131.129
-0.456628	-131.136
-0.4547	-131.14
-0.452806	-131.169
-0.450751	-131.114
-0.448705	-131.151
-0.446798	-131.078
-0.444742	-131.123
-0.442716	-131.082
-0.440884	-131.127
-0.438631	-131.115
-0.436701	-131.163
-0.434728	-131.129
-0.432707	-131.143
-0.430833	-131.066
-0.42872	-131.129
-0.426749	-131.041
-0.424806	-131.163
-0.422704	-131.118
-0.420764	-131.207
-0.418721	-131.163
-0.416698	-131.215
-0.414882	-131.164
-0.412686	-131.148
-0.410692	-131.081
-0.408766	-131.159
-0.406823	-131.119
-0.404713	-131.192
-0.402757	-131.133
-0.4007	-131.239
-0.398659	-131.161
-0.396912	-131.187
-0.39475	-131.154
-0.392786	-131.135
-0.390819	-131.12
-0.388779	-131.164
-0.386722	-131.103
-0.384883	-131.189
-0.382691	-131.121
-0.38078	-131.199
-0.378679	-131.146
-0.376756	-131.101
-0.374785	-131.142
-0.372757	-131.166
-0.370757	-131.153
-0.368881	-131.182
-0.366739	-131.163
-0.364841	-131.141
-0.36273	-131.15
-0.360759	-131.08
-0.358788	-131.041
-0.356789	-131.106
-0.354701	-131.046
-0.352786	-131.092
-0.350709	-131.165
-0.348681	-131.103
-0.346882	-131.145
-0.344769	-131.057
-0.342709	-131.043
-0.340898	-131.113
-0.338699	-131.073
-0.336721	-131.124
-0.334744	-131.126
-0.332658	-131.131
-0.330813	-131.136
-0.328751	-131.084
-0.326723	-131.054
-0.324839	-131.122
-0.322686	-131.07
-0.320783	-131.168
-0.318663	-131.113
-0.316697	-131.201
-0.314734	-131.141
-0.312767	-131.166
-0.310806	-131.096
-0.308811	-131.158
-0.306741	-131.075
-0.30468	-131.179
-0.302868	-131.118
-0.300779	-131.192
-0.298785	-131.114
-0.29677	-131.178
-0.294779	-131.041
-0.292792	-131.129
-0.29094	-131.03
-0.288775	-131.12
-0.286759	-131.035
-0.284835	-131.087
-0.282708	-131.107
-0.280703	-131.133
-0.278882	-131.067
-0.276685	-131.114
-0.274729	-131.014
-0.27291	-131.128
-0.270717	-131.101
-0.268841	-131.181
-0.266781	-131.123
-0.264883	-131.184
-0.26275	-131.091
-0.26077	-131.133
-0.258834	-131.058
-0.256767	-131.1
-0.254842	-131.091
-0.252743	-131.131
-0.250706	-131.124
-0.248749	-131.185
-0.246684	-131.14
-0.244814	-131.179
-0.242727	-131.038
-0.240843	-131.071
-0.238784	-131.025
-0.236822	-131.091
-0.234733	-131.032
-0.23275	-131.164
-0.230724	-131.075
-0.228884	-131.162
-0.226717	-131.029
-0.224628	-131.135
-0.222874	-131.06
-0.220642	-131.153
-0.218741	-131.077
-0.216854	-131.174
-0.214664	-131.081
-0.212755	-131.221
-0.210794	-131.098
-0.208778	-131.161
-0.206766	-131.02
-0.20491	-131.101
-0.202743	-131.035
-0.200745	-131.142
-0.198912	-131.031
-0.196734	-131.195
-0.194747	-131.037
-0.192846	-131.172
-0.190823	-130.978
-0.188824	-131.072
-0.186873	-131.024
-0.184799	-131.093
-0.182876	-131.033
-0.180762	-131.166
-0.17873	-131.042
-0.176697	-131.174
-0.174662	-131.045
-0.172895	-131.125
-0.170733	-131.02
-0.168806	-131.126
-0.166757	-131.08
-0.164803	-131.117
-0.16278	-131.114
-0.160767	-131.127
-0.158848	-131.085
-0.156807	-131.084
-0.154932	-131.019
-0.152723	-131.092
-0.150779	-131.012
-0.148891	-131.123
-0.146798	-131.04
-0.144872	-131.097
-0.142827	-131.081
-0.140984	-131.056
-0.138755	-131.044
-0.136735	-131.052
-0.134962	-131.011
-0.132773	-131.122
-0.13079	-131.066
-0.128752	-131.181
-0.126683	-131.127
-0.124747	-131.147
-0.122752	-131.094
-0.120916	-131.092
-0.118762	-131.073
-0.116808	-131.115
-0.114795	-131.063
-0.112786	-131.168
-0.110798	-131.09
-0.108981	-131.153
-0.106787	-131.046
-0.104776	-131.115
-0.102837	-131.034
-0.100824	-131.086
-0.0989883	-131.029
-0.0967732	-131.095
-0.0947331	-131.055
-0.0928013	-131.14
-0.0907761	-131.041
-0.0889111	-131.13
-0.0868287	-130.999
-0.0848342	-131.081
-0.0828303	-131.054
-0.0808178	-131.091
-0.0789825	-131.061
-0.0767568	-131.072
-0.0748409	-131.067
-0.0727574	-131.076
-0.0707407	-130.955
-0.0689839	-130.998
-0.0668134	-130.897
-0.0647532	-130.975
-0.0627916	-130.944
-0.0607696	-130.976
-0.0589025	-131.052
-0.0568423	-131.011
-0.0548012	-130.989
-0.0528906	-130.984
-0.0508124	-130.958
-0.0486864	-130.969
-0.0469222	-131.003
-0.0447984	-131.016
-0.0428443	-131.033
-0.0407522	-131.076
-0.0387472	-131.06
-0.0368812	-131.047
-0.0348167	-131.026
-0.0327374	-130.995
-0.0309573	-131.043
-0.0287496	-131.051
-0.0267234	-131.045
-0.0248213	-131.112
-0.0227908	-131.018
-0.0208749	-131.054
-0.0188497	-131.009
-0.0166929	-130.98
-0.0148014	-130.966
-0.012876	-130.989
-0.0108147	-131.012
-8.76618e-3	-131.027
-6.99773e-3	-130.998
-4.77946e-3	-131.067
-2.76064e-3	-130.926
-0.871247e-3	-131.017
1.19956e-3	-130.921
3.27672e-3	-130.999
5.07807e-3	-130.987
7.25177e-3	-131.026
9.11146e-3	-130.997
0.0112035	-131.101
0.0130939	-130.988
0.0152295	-131.076
0.017121	-131.009
0.0192003	-131.078
0.0210515	-131.007
0.0232018	-131.083
0.0250148	-131.003
0.0272596	-131.047
0.0292678	-131.015
0.0312506	-131.003
0.0331888	-130.99
0.0352659	-131.006
0.0371362	-130.974
0.0391657	-131.052
0.0412068	-130.989
0.0432426	-131.049
0.0452667	-131.016
0.0471826	-131.023
0.0492279	-131.003
0.0512945	-130.984
0.053116	-130.986
0.0552314	-131.014
0.057073	-130.975
0.0592531	-131.046
0.0610884	-131.007
0.0632387	-131.048
0.0650518	-131.003
0.0672456	-131.015
0.0692708	-130.984
0.0710562	-131.004
0.073214	-130.976
0.0751183	-131.039
0.0772771	-130.973
0.0792058	-131.04
0.0813392	-130.975
0.0832859	-130.999
0.0851583	-130.908
0.0872407	-130.963
0.089232	-130.879
0.0911076	-131.021
0.0932251	-130.917
0.0951314	-131.007
0.0972754	-130.937
0.0992433	-131.008
0.101119	-130.866
0.103239	-130.966
0.105322	-130.815
0.107074	-130.972
0.109255	-130.866
0.111311	-130.977
0.113116	-130.899
0.1152	-130.921
0.117098	-130.807
0.119182	-130.943
0.121193	-130.73
0.123261	-130.921
0.125012	-130.81
0.127273	-130.958
0.12926	-130.825
0.131204	-130.967
0.133227	-130.799
0.135053	-130.9
0.137259	-130.781
0.139268	-130.889
0.141112	-130.835
0.143196	-130.923
0.145064	-130.854
0.147225	-130.929
0.149096	-130.88
0.151164	-130.9
0.153214	-130.806
0.155226	-130.905
0.15722	-130.842
0.159298	-130.91
0.161313	-130.883
0.16319	-130.973
0.165179	-130.887
0.16705	-130.948
0.169292	-130.849
0.171274	-130.865
0.17309	-130.8
0.175221	-130.867
0.177238	-130.811
0.179221	-130.848
0.181323	-130.837
0.183321	-130.882
0.185078	-130.784
0.187315	-130.839
0.189312	-130.698
0.191303	-130.774
0.193057	-130.794
0.195243	-130.83
0.197277	-130.803
0.199145	-130.892
0.201249	-130.766
0.203065	-130.845
0.205263	-130.714
0.207235	-130.827
0.209036	-130.757
0.211209	-130.799
0.213041	-130.77
0.21522	-130.799
0.217123	-130.739
0.219244	-130.807
0.221217	-130.719
0.223137	-130.809
0.225182	-130.678
0.22706	-130.792
0.22927	-130.715
0.231217	-130.823
0.233324	-130.746
0.235218	-130.785
0.237272	-130.718
0.239208	-130.657
0.241122	-130.655
0.243273	-130.75
0.245266	-130.702
0.247095	-130.805
0.249214	-130.693
0.251069	-130.775
0.253198	-130.729
0.255198	-130.704
0.257241	-130.719
0.259268	-130.634
0.261271	-130.668
0.263063	-130.677
0.265296	-130.649
0.267311	-130.701
0.269183	-130.685
0.271205	-130.639
0.273227	-130.605
0.275072	-130.577
0.277239	-130.59
0.279164	-130.547
0.281302	-130.611
0.283118	-130.634
0.285223	-130.618
0.287259	-130.629
0.289231	-130.61
0.291277	-130.545
0.293277	-130.547
0.295058	-130.603
0.297281	-130.556
0.299319	-130.605
0.301117	-130.578
0.30323	-130.536
0.305192	-130.52
0.307223	-130.529
0.309229	-130.431
0.311337	-130.54
0.313103	-130.437
0.315252	-130.522
0.317171	-130.493
0.319259	-130.537
0.321248	-130.451
0.323188	-130.514
0.325194	-130.389
0.327255	-130.45
0.329051	-130.342
0.331259	-130.434
0.333298	-130.342
0.335194	-130.476
0.337239	-130.355
0.339085	-130.37
0.341233	-130.314
0.343244	-130.35
0.345283	-130.338
0.34704	-130.407
0.349297	-130.353
0.351306	-130.415
0.353198	-130.372
0.355243	-130.375
0.357078	-130.274
0.359306	-130.282
0.361267	-130.188
0.363307	-130.242
0.36521	-130.217
0.367215	-130.18
0.369123	-130.168
0.37128	-130.209
0.373322	-130.121
0.375132	-130.176
0.377257	-130.029
0.379279	-130.068
0.381129	-130.024
0.383326	-130.013
0.385291	-129.997
0.387108	-129.989
0.38925	-129.925
0.391182	-129.971
0.393316	-129.867
0.39529	-129.906
0.397074	-129.812
0.399246	-129.855
0.401223	-129.771
0.403286	-129.796
0.405306	-129.692
0.407312	-129.712
0.409343	-129.574
0.411176	-129.579
0.413299	-129.417
0.415314	-129.455
0.417092	-129.336
0.419257	-129.401
0.421186	-129.205
0.42324	-129.283
0.42534	-129.067
0.42709	-129.073
0.429204	-128.912
0.431215	-128.918
0.433268	-128.775
0.435286	-128.849
0.437339	-128.634
0.439143	-128.705
0.441261	-128.416
0.443164	-128.43
0.445236	-128.189
0.447169	-128.118
0.449203	-127.915
0.451164	-127.87
0.453172	-127.623
0.455051	-127.581
0.457213	-127.31
0.459213	-127.227
0.461063	-126.89
0.46321	-126.704
0.465196	-126.422
0.467066	-126.277
0.469162	-125.971
0.471189	-125.785
0.473072	-125.435
0.47515	-125.17
0.477022	-124.744
0.479146	-124.435
0.481147	-123.941
0.48315	-123.615
0.485062	-123.146
0.487193	-122.756
0.489151	-122.208
0.491114	-121.737
0.493152	-121.116
0.495095	-120.492
0.496993	-119.829
0.49911	-119.216
0.501114	-118.35
0.503086	-117.685
0.505072	-116.787
0.507118	-115.988
0.509028	-114.987
0.51108	-114.018
0.513021	-112.9
0.515104	-111.799
0.517075	-110.509
0.519025	-109.309
0.521094	-107.868
0.523021	-106.556
0.525054	-104.939
0.527027	-103.403
0.529039	-101.607
0.530993	-99.8836
0.533033	-97.9054
0.535046	-95.981
0.537089	-93.7257
0.539062	-91.6041
0.54106	-89.1856
0.543051	-86.8029
0.545107	-84.0679
0.547071	-81.4205
0.549031	-78.4922
0.551041	-75.609
0.553036	-72.4541
0.554989	-69.2505
0.557051	-65.8488
0.559072	-62.3303
0.561106	-58.5847
0.563075	-54.7139
0.565114	-50.6383
0.567124	-46.5709
0.572168	-35.1596
0.57724	-23.1119
0.579263	-18.0602
0.581253	-12.8501
0.583252	-7.5204
0.585276	-2.00007
0.587256	3.649
0.588647	7.46711
0.588971	8.45306
